200N,,,440N,,,660N,,,880N,,,1100N,WARMUP?,,1100N,
SA [deg],Fy [N],,SA [deg],Fy [N],,SA [deg],Fy [N],,SA [deg],Fy [N],,SA [deg],Fy [N],,SA [deg],Fy [N]
0.02,23.27,,0.06,46.08,,0.02,43.53,,0.03,57.42,,0.03,59.12,,0.018,59.14
0.07,32.36,,0.06,59.7,,0.05,62.21,,0.07,78.04,,0.06,76.55,,0.077,79.75
0.1,42.06,,0.11,76.36,,0.08,79.68,,0.09,98.09,,0.08,92.94,,0.086,100.46
0.15,52.82,,0.17,89.85,,0.14,97.8,,0.15,119.63,,0.12,111.68,,0.135,121.34
0.16,61.11,,0.21,104.13,,0.18,115.28,,0.19,138.84,,0.18,130.84,,0.171,138.51
0.22,68.13,,0.27,119.19,,0.21,133.35,,0.22,158.32,,0.21,153.48,,0.245,155.13
0.25,76.27,,0.28,132.21,,0.24,150.87,,0.27,178.24,,0.25,174.77,,0.252,175.11
0.3,84.7,,0.32,144.68,,0.31,169.66,,0.29,198.48,,0.29,196.91,,0.323,195.09
0.35,93.51,,0.39,159.36,,0.33,188.1,,0.36,218.52,,0.35,221.04,,0.356,218.5
0.38,102.33,,0.42,172.71,,0.36,208.44,,0.39,239.62,,0.4,243.21,,0.399,240.49
0.44,112.56,,0.44,187.84,,0.43,226.33,,0.46,259.73,,0.45,266.05,,0.44,263.96
0.47,124.43,,0.5,204.96,,0.45,244.24,,0.48,279.45,,0.47,286.16,,0.475,288.1
0.52,136.36,,0.53,220.49,,0.51,261.34,,0.53,299.64,,0.52,306.82,,0.529,311.61
0.57,147.78,,0.58,235.57,,0.55,278.77,,0.57,318.87,,0.56,325.57,,0.562,330.14
0.6,160.41,,0.63,251.64,,0.61,295.77,,0.6,338.05,,0.61,346.12,,0.608,352.36
0.65,168.95,,0.68,266.45,,0.63,312.56,,0.66,357.47,,0.64,366.86,,0.656,371.7
0.68,178.72,,0.7,280.69,,0.67,330.51,,0.7,376.43,,0.69,387.43,,0.7,390.52
0.71,185.4,,0.74,294.66,,0.72,347.16,,0.74,395.52,,0.72,408.21,,0.719,408.99
0.74,192.07,,0.79,307.59,,0.74,366.65,,0.78,416.49,,0.76,428.68,,0.754,430.38
0.8,198.44,,0.84,322.62,,0.8,385.85,,0.8,436.61,,0.82,451.52,,0.811,448.96
0.84,205.41,,0.86,336.41,,0.83,405.59,,0.84,455.1,,0.84,472.96,,0.85,471.54
0.86,215.29,,0.91,349.16,,0.86,422.51,,0.89,475.66,,0.89,490.95,,0.875,492.31
0.9,222.85,,0.94,359.25,,0.89,438.84,,0.93,493.44,,0.92,511.03,,0.935,514.3
0.96,232.78,,0.97,372.07,,0.95,454.89,,0.97,512.17,,0.96,529.11,,0.956,534.27
1.01,242.83,,1.02,384.26,,0.98,469.65,,0.99,532.19,,1,550.43,,0.984,555.9
1.04,253.93,,1.07,396.32,,1.02,484.02,,1.03,548.56,,1.05,567.76,,1.051,573.86
1.09,260.68,,1.12,410.7,,1.06,498.05,,1.07,568.65,,1.06,586.9,,1.061,593.17
1.12,269.64,,1.14,422.97,,1.12,514.67,,1.13,585.91,,1.12,606.95,,1.127,611.9
1.15,275.46,,1.19,434.83,,1.13,531.93,,1.16,604.2,,1.17,627.41,,1.147,631.15
1.2,279.1,,1.23,446.02,,1.19,547.32,,1.2,624.84,,1.2,647.41,,1.193,652.52
1.22,283.53,,1.28,457.38,,1.23,563.98,,1.25,640.71,,1.24,667.51,,1.222,669.75
1.27,287.56,,1.29,465.58,,1.27,580.97,,1.25,659.27,,1.26,688.06,,1.283,692.44
1.32,294.9,,1.33,473.77,,1.3,596.46,,1.31,675.83,,1.31,706.92,,1.318,712.32
1.34,303.18,,1.37,480.62,,1.34,608.9,,1.35,692.16,,1.36,725.58,,1.368,733.02
1.4,310.46,,1.4,491.14,,1.39,620.39,,1.41,709.42,,1.38,744.15,,1.375,752.34
1.42,317.89,,1.45,500.71,,1.41,633.24,,1.44,725.13,,1.43,763.63,,1.434,770.95
1.46,326.73,,1.52,512.42,,1.44,644.73,,1.49,741.88,,1.49,781.43,,1.478,790.47
1.5,334.89,,1.53,522.28,,1.5,658.1,,1.52,759.27,,1.49,801.47,,1.51,809.73
1.56,340.87,,1.56,534.57,,1.55,670.46,,1.55,775.11,,1.54,819.32,,1.557,827.11
1.58,346.75,,1.61,546.42,,1.56,685.92,,1.59,790.83,,1.57,838.5,,1.586,845.79
1.62,350.49,,1.63,556.02,,1.62,699.37,,1.63,809,,1.63,857.76,,1.611,865.73
1.64,353.04,,1.71,563.44,,1.65,715.02,,1.65,825.46,,1.68,875.67,,1.658,884.84
1.7,354.58,,1.74,568.13,,1.7,729.56,,1.69,840.07,,1.71,895.77,,1.709,904.2
1.75,355.55,,1.76,572.33,,1.72,740.46,,1.77,854.99,,1.75,912.3,,1.729,922.67
1.77,356.67,,1.81,578.02,,1.78,752.73,,1.8,868.9,,1.79,929.7,,1.792,941.17
1.78,361.02,,1.83,584.58,,1.82,762.32,,1.84,881.77,,1.81,945.57,,1.817,959.95
1.86,367.26,,1.91,592.34,,1.85,770.25,,1.86,896.12,,1.84,962.21,,1.879,977.26
1.89,374.4,,1.94,603.75,,1.92,780.24,,1.93,910.05,,1.92,977.38,,1.9,993.08
1.96,382.64,,2,613.96,,1.94,789.7,,1.95,925.79,,1.94,997.3,,1.955,1011.09
1.98,390.94,,2,627.11,,1.97,803.13,,2,942.62,,1.98,1013.77,,2,1027.65
2.01,395.9,,2.08,637.37,,2.04,814.29,,2.05,956.54,,2.03,1030.95,,2.06,1045.66
2.08,398.6,,2.1,644.73,,2.08,827.99,,2.1,971.09,,2.08,1048.05,,2.07,1062.25
2.1,399.16,,2.15,651.61,,2.13,841.17,,2.12,985.5,,2.12,1066.81,,2.117,1079.33
2.15,395.05,,2.18,655.42,,2.15,852.57,,2.17,1000.07,,2.17,1082.61,,2.148,1096.53
2.21,393.7,,2.24,657.75,,2.21,864.52,,2.22,1014.48,,2.21,1098.53,,2.209,1112.93
2.24,393.08,,2.3,659.9,,2.22,872.58,,2.25,1025.88,,2.23,1114.36,,2.243,1129.5
2.28,397.16,,2.32,665.98,,2.28,881.54,,2.26,1038.31,,2.28,1129.06,,2.306,1146.08
2.3,405.58,,2.36,673.03,,2.31,887.31,,2.33,1050.74,,2.32,1144.87,,2.335,1162.7
2.35,415.78,,2.38,681.77,,2.35,894.42,,2.36,1060.12,,2.34,1159.37,,2.376,1179.3
2.41,423.8,,2.43,693.91,,2.36,905.58,,2.41,1075.54,,2.37,1175.17,,2.392,1193.23
2.44,432.7,,2.47,705.6,,2.43,914.86,,2.44,1088.15,,2.44,1191.64,,2.424,1208.52
2.48,436.01,,2.49,714.73,,2.46,926.66,,2.46,1100.45,,2.48,1206.7,,2.444,1222.85
2.5,439.03,,2.54,724.81,,2.49,938.36,,2.5,1112.29,,2.5,1220.43,,2.494,1238.8
2.54,437.41,,2.56,728.89,,2.54,949.97,,2.53,1125.58,,2.54,1236.41,,2.538,1251.75
2.6,433.07,,2.61,731.7,,2.59,961.06,,2.58,1135.22,,2.57,1250.92,,2.588,1268.95
2.62,429.03,,2.62,733.11,,2.61,971.36,,2.63,1148.22,,2.6,1265.46,,2.613,1283.34
2.66,428.72,,2.69,733.66,,2.64,978.35,,2.65,1159.71,,2.63,1277.18,,2.645,1299.94
2.68,430.21,,2.71,738.03,,2.68,986.64,,2.71,1170.08,,2.67,1290.31,,2.697,1314.36
2.72,436.18,,2.74,745.41,,2.71,992.98,,2.75,1181.19,,2.73,1304.85,,2.746,1328.73
2.78,446.14,,2.79,753.71,,2.76,1000.58,,2.77,1191.53,,2.78,1319.95,,2.765,1341.89
2.81,455.89,,2.83,766.24,,2.83,1009.1,,2.82,1203.67,,2.83,1334.42,,2.816,1356.53
2.86,464.39,,2.87,776.85,,2.83,1015.87,,2.86,1215.52,,2.88,1350.26,,2.864,1368.91
2.88,472.76,,2.92,785.55,,2.89,1028.32,,2.92,1227.31,,2.89,1364.62,,2.915,1383.51
2.92,476.05,,2.95,796.1,,2.93,1038.94,,2.96,1237.87,,2.93,1379.01,,2.949,1398.73
2.99,472.95,,3,801.66,,2.99,1050.18,,3,1250.38,,2.98,1393.39,,3.002,1412.42
3.03,471.21,,3.04,804.15,,3.03,1059.14,,3.04,1261.43,,3.03,1406.77,,3.041,1427.49
3.05,466.28,,3.1,803.69,,3.08,1069.97,,3.08,1275.7,,3.06,1419,,3.067,1442.46
3.09,463.34,,3.13,806.05,,3.1,1078.64,,3.11,1286.61,,3.1,1430.96,,3.095,1454.9
3.14,463.6,,3.19,808.35,,3.16,1085.21,,3.14,1298.95,,3.17,1443.38,,3.148,1468.73
3.2,467.79,,3.24,811.65,,3.19,1091.02,,3.2,1307.7,,3.2,1455.76,,3.187,1481.9
3.24,477.19,,3.26,819.8,,3.23,1097.91,,3.24,1318.46,,3.24,1468.22,,3.227,1496.34
3.28,488.25,,3.32,831.77,,3.27,1104.36,,3.29,1327.99,,3.28,1481.98,,3.294,1508.22
3.32,498.97,,3.33,840.62,,3.31,1113.29,,3.31,1338.4,,3.3,1497.86,,3.306,1520.72
3.36,507.74,,3.39,850.85,,3.33,1120.88,,3.36,1346.48,,3.33,1510.83,,3.37,1534.57
3.39,513.86,,3.43,858.91,,3.39,1128.55,,3.42,1357.03,,3.4,1523.76,,3.399,1548.97
3.41,512.44,,3.46,865.9,,3.4,1140.22,,3.44,1368.09,,3.43,1535.6,,3.442,1562.83
3.48,507.44,,3.49,867.68,,3.45,1149.33,,3.46,1379.12,,3.48,1547.28,,3.462,1575.08
3.51,501.53,,3.54,865.96,,3.5,1157.42,,3.51,1391.03,,3.51,1557.62,,3.529,1587.45
3.55,495.87,,3.59,865.59,,3.54,1165.61,,3.56,1401.29,,3.54,1567.24,,3.557,1601.83
3.6,497.24,,3.6,867.49,,3.58,1174.12,,3.58,1411.27,,3.59,1579.23,,3.597,1614.32
3.62,501.24,,3.64,870.21,,3.63,1181.66,,3.62,1417.44,,3.64,1593,,3.642,1629.46
3.65,508.44,,3.69,875.75,,3.64,1184.81,,3.69,1424.95,,3.65,1606.8,,3.658,1643.96
3.71,520.57,,3.71,885.48,,3.71,1188.85,,3.7,1432.51,,3.71,1621.95,,3.69,1656.5
3.76,530.99,,3.77,895.63,,3.75,1194.44,,3.75,1440.32,,3.74,1635.06,,3.761,1669.81
3.76,540.47,,3.81,905.18,,3.76,1200.48,,3.78,1448.04,,3.76,1647.41,,3.774,1681.46
3.81,545.22,,3.86,916.17,,3.82,1208.66,,3.84,1457.73,,3.81,1661.03,,3.819,1693.17
3.88,546.91,,3.88,921.43,,3.86,1214.81,,3.87,1470.9,,3.85,1671.29,,3.853,1704.96
3.9,541.43,,3.93,925.77,,3.87,1225.7,,3.91,1481.92,,3.89,1682.43,,3.898,1716.45
3.96,535.65,,3.98,924.22,,3.93,1234.3,,3.95,1494.18,,3.93,1693.56,,3.932,1728.23
3.97,528.9,,4.03,920.61,,3.98,1243.17,,3.97,1505.85,,3.96,1704.73,,3.974,1741.81
4.03,528.18,,4.05,920.72,,4,1251.07,,4.03,1514.19,,4,1716.57,,4.025,1757.12
4.05,530.35,,4.09,921.08,,4.06,1256.88,,4.04,1521.02,,4.05,1726.94,,4.057,1770.26
4.09,536.34,,4.12,925.94,,4.09,1259.63,,4.12,1528.02,,4.11,1740.76,,4.104,1782.7
4.14,545.43,,4.17,934.63,,4.14,1261.61,,4.13,1535.35,,4.13,1751.7,,4.126,1793.96
4.17,556.73,,4.2,944.46,,4.2,1266.17,,4.19,1545.15,,4.18,1765.57,,4.199,1802.94
4.21,567.44,,4.24,955.1,,4.22,1269.74,,4.25,1558.29,,4.23,1777.16,,4.212,1811.99
4.27,573.55,,4.28,965.01,,4.26,1276.74,,4.28,1568.78,,4.25,1788.21,,4.265,1821.6
4.29,578.15,,4.34,971.14,,4.31,1284.15,,4.32,1580.5,,4.29,1798.47,,4.318,1833.27
4.32,575.59,,4.37,975.46,,4.33,1293.46,,4.36,1592.4,,4.34,1810.09,,4.356,1843.45
4.38,566.31,,4.4,973.62,,4.36,1305.95,,4.4,1604.86,,4.38,1819.96,,4.392,1857.93
4.41,558.05,,4.43,970.85,,4.4,1314.04,,4.42,1614.49,,4.42,1832.4,,4.427,1872.42
4.46,552.46,,4.49,968.47,,4.45,1323.83,,4.45,1621.14,,4.46,1842.04,,4.481,1886.92
4.51,550.76,,4.55,967.26,,4.5,1327.63,,4.5,1628.79,,4.5,1851.78,,4.506,1899.28
4.56,554.13,,4.59,971.79,,4.54,1331.75,,4.56,1635.46,,4.55,1862.87,,4.553,1909.8
4.57,561.88,,4.61,981.38,,4.58,1333.44,,4.6,1642.98,,4.59,1873.97,,4.588,1918.83
4.61,575.76,,4.64,990.33,,4.64,1334.48,,4.63,1650.73,,4.61,1886.27,,4.631,1925.07
4.67,588.14,,4.69,1002.23,,4.66,1338.4,,4.67,1661.03,,4.66,1897.27,,4.683,1932.69
4.7,598.54,,4.75,1013.54,,4.69,1345.03,,4.71,1673.52,,4.7,1906.12,,4.717,1942.28
4.73,604.98,,4.79,1022.07,,4.73,1352.38,,4.75,1683.96,,4.74,1915.74,,4.765,1952.57
4.8,603.99,,4.81,1026.28,,4.78,1363.48,,4.8,1693.75,,4.79,1924.02,,4.797,1963.52
4.81,595.42,,4.85,1024.96,,4.83,1377.02,,4.85,1704.14,,4.82,1933.68,,4.825,1974.45
4.88,584.83,,4.9,1018.42,,4.87,1385.9,,4.87,1712.2,,4.87,1943.49,,4.862,1988.3
4.89,576.27,,4.96,1012.42,,4.9,1396.09,,4.91,1718.45,,4.92,1953.18,,4.908,2000.74
4.95,571.42,,4.98,1010.06,,4.96,1402.39,,4.97,1723.2,,4.95,1960.78,,4.945,2012.42
4.98,571.79,,5.03,1009.93,,4.98,1402.46,,5,1730.19,,5,1968.55,,4.98,2021.52
5.03,579.73,,5.08,1018.9,,5.03,1402.35,,5.03,1735.69,,5.02,1978.92,,5.024,2029.88
5.08,591.05,,5.09,1026.28,,5.08,1401.39,,5.08,1743.19,,5.05,1987.66,,5.078,2034.05
5.11,601.68,,5.13,1038.62,,5.08,1404.77,,5.11,1749.28,,5.12,1997.37,,5.118,2038.93
5.14,614.82,,5.17,1047.16,,5.16,1409.61,,5.17,1758.55,,5.14,2006.06,,5.163,2046.47
5.2,621.55,,5.21,1054.12,,5.19,1419.63,,5.19,1766.8,,5.17,2014.34,,5.194,2054.06
5.22,622.69,,5.25,1059,,5.23,1430.47,,5.23,1774.46,,5.23,2023.28,,5.239,2065.66
5.26,614.67,,5.31,1058.16,,5.27,1441.22,,5.28,1782.89,,5.27,2033.08,,5.286,2075.98
5.31,602.07,,5.35,1051.24,,5.29,1452.01,,5.3,1789.55,,5.3,2042.06,,5.3,2087.65
5.36,591.64,,5.38,1043.94,,5.34,1460.24,,5.35,1793.62,,5.35,2047.74,,5.366,2098.03
5.37,585.28,,5.41,1038.59,,5.38,1463.1,,5.4,1795.57,,5.39,2054.61,,5.388,2106.92
5.43,586.05,,5.45,1038.03,,5.4,1460.9,,5.43,1799.2,,5.43,2060.91,,5.422,2113.9
5.47,591.64,,5.51,1042.55,,5.45,1455.83,,5.47,1804.67,,5.48,2069.84,,5.463,2116.1
5.5,604.81,,5.53,1051.48,,5.51,1453.27,,5.51,1810.3,,5.49,2079.46,,5.504,2116.7
5.55,618.55,,5.58,1061.57,,5.54,1451.79,,5.55,1816.78,,5.56,2087.65,,5.54,2119.56
5.6,633.31,,5.64,1071.19,,5.59,1459.58,,5.6,1824.11,,5.59,2095.18,,5.58,2123.04
5.62,642.76,,5.66,1079.7,,5.61,1468.49,,5.63,1831.82,,5.62,2102.61,,5.635,2132.57
5.67,643.66,,5.69,1086.11,,5.65,1477.5,,5.67,1838.06,,5.67,2111.69,,5.659,2140.86
5.7,637.63,,5.74,1083.77,,5.69,1489.18,,5.73,1844.12,,5.71,2119.39,,5.724,2151.23
5.73,625.79,,5.77,1075.21,,5.74,1498.61,,5.77,1850.4,,5.74,2126.32,,5.739,2159.41
5.77,610.94,,5.81,1065.52,,5.78,1508.19,,5.79,1853.14,,5.77,2129.68,,5.779,2168.51
5.83,602.42,,5.85,1056.17,,5.84,1508.13,,5.84,1853.61,,5.81,2133.28,,5.831,2177.31
5.87,598.49,,5.88,1056.41,,5.86,1502.27,,5.87,1854.88,,5.87,2137.38,,5.869,2180.83
5.91,601.02,,5.94,1059.28,,5.9,1495.36,,5.9,1857.16,,5.91,2142.98,,5.906,2180.19
5.94,611.21,,5.97,1070.08,,5.95,1488.36,,5.96,1863.38,,5.95,2151.21,,5.931,2181.54
5.98,625.37,,6.01,1080.41,,5.98,1488.4,,6,1868.15,,5.99,2158.6,,5.98,2183.09
6.01,639.05,,6.07,1089.78,,6.01,1492.33,,6.04,1872.81,,6.01,2164.86,,6.029,2188
6.06,648.47,,6.11,1097.3,,6.06,1502.51,,6.06,1878.73,,6.06,2171.61,,6.059,2196.11
6.11,653.16,,6.14,1101.2,,6.09,1512.72,,6.11,1883.48,,6.1,2179.95,,6.097,2205.81
6.14,649.15,,6.18,1100.33,,6.15,1523.08,,6.14,1886.81,,6.15,2186.19,,6.154,2211.3
6.2,638.5,,6.2,1091.04,,6.16,1530.71,,6.18,1892.44,,6.18,2190.33,,6.197,2218.85
6.21,620.96,,6.26,1077.21,,6.22,1535.54,,6.25,1897.25,,6.21,2192.52,,6.232,2223.51
6.26,608.53,,6.28,1066.45,,6.26,1535.46,,6.29,1898.54,,6.25,2194.53,,6.268,2229.19
6.31,605.23,,6.33,1062.77,,6.3,1528.03,,6.3,1897.79,,6.31,2196.75,,6.321,2230.5
6.33,607.25,,6.4,1067.58,,6.33,1518.32,,6.35,1897.61,,6.35,2203.59,,6.337,2230.42
6.37,615.06,,6.43,1076.45,,6.38,1508.85,,6.41,1901.2,,6.39,2211.29,,6.385,2229.09
6.44,627.89,,6.45,1086.43,,6.43,1507.67,,6.44,1906.14,,6.43,2220.87,,6.435,2230.57
6.48,640.67,,6.49,1096.98,,6.45,1510.91,,6.48,1910.84,,6.47,2226.26,,6.46,2236.88
6.51,650.85,,6.55,1105.04,,6.49,1519.42,,6.5,1915.08,,6.5,2231.77,,6.497,2245.78
6.53,656.81,,6.56,1110.24,,6.53,1528.99,,6.55,1919.88,,6.55,2237.3,,6.555,2254.71
6.58,655.92,,6.63,1107.87,,6.59,1537.74,,6.58,1924.73,,6.59,2243.48,,6.587,2260.27
6.61,647.33,,6.66,1097.7,,6.61,1544.73,,6.64,1931.64,,6.62,2247.69,,6.627,2264.88
6.68,632.51,,6.71,1083.11,,6.67,1548.04,,6.66,1936.53,,6.67,2249.08,,6.663,2268.36
6.72,617.74,,6.75,1070.47,,6.68,1549.28,,6.71,1935.83,,6.7,2248.42,,6.717,2273.19
6.74,608.86,,6.79,1063.51,,6.75,1541.97,,6.75,1933.53,,6.74,2249.71,,6.75,2275.97
6.8,607.33,,6.83,1063.82,,6.77,1532.43,,6.79,1934.84,,6.77,2255.99,,6.773,2278.78
6.82,614.06,,6.87,1070.5,,6.82,1523.76,,6.83,1936.36,,6.82,2267.09,,6.828,2280.87
6.86,623.91,,6.9,1081.66,,6.85,1520.82,,6.86,1940.39,,6.87,2273.87,,6.864,2283.66
6.9,637.89,,6.94,1093.56,,6.92,1522.21,,6.9,1943.23,,6.92,2280.79,,6.921,2292.05
6.95,649.95,,6.99,1103.46,,6.93,1530.48,,6.96,1948.11,,6.94,2285.61,,6.937,2301.63
6.99,659.4,,7.01,1109.39,,6.98,1540.33,,6.98,1953.79,,6.98,2288.86,,6.986,2310.64
7.02,660.44,,7.06,1108.12,,7,1548.51,,7.02,1960.01,,7.02,2293.86,,7.014,2315.33
7.07,655.98,,7.1,1101.11,,7.05,1554.69,,7.07,1965.51,,7.05,2295.86,,7.064,2318.6
7.12,642.52,,7.13,1087.21,,7.11,1559.13,,7.13,1969.77,,7.11,2298.6,,7.1,2321.52
7.15,626.05,,7.19,1073.26,,7.13,1559.11,,7.16,1968.09,,7.16,2298.62,,7.144,2322.11
7.18,613.04,,7.23,1063.73,,7.19,1554.28,,7.18,1965.33,,7.17,2299.42,,7.177,2329
7.22,608.25,,7.25,1061.76,,7.21,1546.45,,7.22,1961.8,,7.23,2304.89,,7.239,2329.7
7.26,610.77,,7.32,1066.62,,7.25,1536.75,,7.27,1963.28,,7.25,2313.29,,7.263,2331.86
7.33,619.55,,7.34,1077.32,,7.3,1533,,7.31,1965.79,,7.32,2321.59,,7.314,2333.9
7.35,633.31,,7.37,1088.87,,7.35,1536.15,,7.34,1972.08,,7.34,2324.19,,7.343,2339.59
7.4,645.56,,7.41,1098.44,,7.38,1542.09,,7.4,1976.44,,7.37,2327.58,,7.375,2346.46
7.44,654.04,,7.47,1102.73,,7.42,1550.41,,7.43,1983.47,,7.42,2329.58,,7.429,2353.95
7.46,659.8,,7.49,1104.32,,7.46,1559.57,,7.49,1992.45,,7.48,2333.69,,7.481,2357.49
7.5,659.97,,7.54,1101.14,,7.51,1564.51,,7.51,1999.19,,7.5,2336.44,,7.507,2356.69
7.54,649.36,,7.59,1089.7,,7.56,1571.37,,7.56,2003.35,,7.54,2338.67,,7.539,2358.65
7.58,631.68,,7.62,1075.66,,7.58,1572.73,,7.59,2001.88,,7.57,2339.5,,7.598,2361.48
7.62,615.82,,7.66,1062.85,,7.62,1569.44,,7.64,1997.23,,7.64,2343.59,,7.623,2365.58
7.69,606.39,,7.7,1060.11,,7.66,1560.85,,7.68,1993.47,,7.66,2349.92,,7.68,2371.16
7.69,605.4,,7.74,1064.97,,7.72,1554.04,,7.71,1992.87,,7.71,2357.49,,7.693,2374.6
7.75,608.04,,7.77,1073.4,,7.73,1549.76,,7.75,1997.89,,7.74,2365.55,,7.742,2378.7
7.78,619.38,,7.82,1085.81,,7.77,1551.35,,7.79,2003.21,,7.8,2367.61,,7.802,2385.03
7.81,631.28,,7.84,1095.19,,7.83,1556.8,,7.84,2010.19,,7.83,2366.97,,7.83,2392.72
7.87,643.16,,7.89,1105,,7.86,1566.85,,7.88,2019.2,,7.87,2367.66,,7.881,2400.35
7.89,650.55,,7.96,1109.03,,7.91,1575.52,,7.91,2025.58,,7.9,2371.08,,7.892,2401.54
7.95,652.46,,7.98,1108.59,,7.94,1584.41,,7.94,2031.03,,7.93,2375.2,,7.953,2398.78
7.97,648.9,,8.01,1102,,7.96,1589.29,,7.98,2034.4,,7.97,2378.65,,7.979,2397.24
8.02,635.65,,8.05,1089.41,,8.03,1592.6,,8.04,2031.7,,8.02,2382.22,,8.013,2399.32
8.05,618.44,,8.08,1076.2,,8.06,1590.61,,8.05,2026.16,,8.05,2384.23,,8.058,2406.2
8.11,603.96,,8.12,1069.37,,8.08,1582.29,,8.09,2020.55,,8.09,2389.87,,8.09,2413.85
8.15,598.88,,8.17,1069.3,,8.13,1574.55,,8.15,2018.91,,8.13,2398.88,,8.155,2420.12
8.19,602.66,,8.21,1074.94,,8.17,1567.12,,8.2,2022.51,,8.18,2404.28,,8.196,2424.38
8.21,609.36,,8.26,1084.91,,8.23,1564.99,,8.21,2030.8,,8.22,2404.89,,8.209,2427.12
8.26,620.2,,8.27,1097.82,,8.25,1570.58,,8.26,2039.92,,8.25,2402.12,,8.269,2433.5
8.31,634.32,,8.33,1108.26,,8.29,1580.02,,8.31,2047.99,,8.29,2402.08,,8.298,2439.63
8.36,642.74,,8.36,1113.31,,8.34,1590.57,,8.35,2056.41,,8.34,2406.21,,8.338,2440.14
8.4,647.54,,8.43,1114.8,,8.38,1599.58,,8.38,2062.1,,8.38,2411.75,,8.384,2435.91
8.43,646.18,,8.46,1111.93,,8.41,1606.47,,8.42,2062.7,,8.41,2416.63,,8.433,2433.98
8.45,635.95,,8.48,1100.69,,8.47,1610.02,,8.46,2057.73,,8.45,2420.83,,8.455,2435.87
8.5,618.56,,8.54,1087.65,,8.49,1610.07,,8.51,2048.3,,8.5,2423.56,,8.516,2442.84
8.54,603.4,,8.58,1079.81,,8.53,1603.94,,8.54,2038.98,,8.53,2428.48,,8.55,2452.58
8.58,592.96,,8.63,1080.05,,8.57,1593.84,,8.59,2036.41,,8.59,2436.12,,8.579,2458.71
8.63,591.45,,8.66,1082.19,,8.62,1584.9,,8.65,2038.96,,8.63,2442.37,,8.63,2465.83
8.65,595.94,,8.7,1092.26,,8.65,1582.32,,8.67,2049.62,,8.67,2441.63,,8.658,2468.65
8.71,607.91,,8.73,1103.26,,8.69,1585.59,,8.72,2059.04,,8.72,2439.46,,8.708,2472.81
8.75,622.36,,8.78,1113.24,,8.75,1595.32,,8.74,2068.21,,8.74,2438.04,,8.743,2474.88
8.8,633.33,,8.81,1121.13,,8.78,1604.52,,8.8,2075.84,,8.76,2440.76,,8.794,2474.82
8.83,643.54,,8.85,1124.53,,8.81,1613.89,,8.84,2080.75,,8.8,2446.2,,8.833,2469.1
8.85,646.27,,8.89,1122.51,,8.85,1621.9,,8.85,2084.16,,8.84,2453.95,,8.871,2465.66
8.89,641.93,,8.94,1113.93,,8.89,1626.35,,8.9,2077.82,,8.9,2458.73,,8.918,2466.99
8.95,628.42,,8.95,1101.32,,8.95,1626.57,,8.94,2068.12,,8.94,2462.91,,8.943,2473.23
8.97,610.9,,8.99,1090.66,,8.99,1623.04,,8.98,2058.43,,8.97,2467.75,,8.981,2484.27
9,597.55,,9.04,1086.71,,9.02,1613.89,,9.04,2054.93,,9.03,2474.03,,9.032,2491.23
9.05,592.16,,9.07,1087.43,,9.05,1604.88,,9.08,2060.55,,9.07,2477.39,,9.072,2497.53
9.1,592.96,,9.13,1094.75,,9.09,1600.66,,9.11,2069.95,,9.11,2476.05,,9.116,2500.91
9.15,600.4,,9.18,1104.91,,9.14,1603.62,,9.15,2084.18,,9.15,2471.14,,9.155,2503.8
9.18,612.6,,9.22,1116.59,,9.19,1610.55,,9.2,2092.98,,9.18,2467.56,,9.196,2505.92
9.21,625.74,,9.25,1125.31,,9.23,1620.74,,9.21,2099.92,,9.23,2468.22,,9.234,2503.74
9.28,636.5,,9.3,1132.13,,9.26,1631.73,,9.27,2103.39,,9.27,2475.26,,9.268,2497.53
9.32,640.39,,9.33,1133.1,,9.28,1639.61,,9.31,2102.66,,9.32,2482.13,,9.313,2491.83
9.34,640.62,,9.36,1128.6,,9.33,1645.35,,9.33,2099.26,,9.33,2489.67,,9.351,2491.75
9.38,631.98,,9.42,1116.69,,9.38,1646.74,,9.38,2090.25,,9.38,2493.26,,9.374,2499.42
9.41,616.52,,9.47,1104.06,,9.41,1643.61,,9.43,2080.48,,9.43,2498.27,,9.414,2508.42
9.46,601.7,,9.48,1094.99,,9.46,1633.9,,9.49,2076.38,,9.47,2504.35,,9.461,2518.06
9.52,591.23,,9.54,1092.34,,9.5,1625.65,,9.5,2080.36,,9.51,2507.98,,9.491,2522.28
9.54,589.82,,9.59,1095.78,,9.53,1618.55,,9.56,2090.84,,9.53,2505.75,,9.534,2525.8
9.58,593.49,,9.6,1104.55,,9.57,1619.37,,9.57,2103.93,,9.58,2500.89,,9.592,2527.3
9.64,603.37,,9.64,1116.31,,9.61,1624.93,,9.62,2113.82,,9.62,2495.24,,9.629,2527.32
9.65,617.05,,9.69,1126.82,,9.67,1636.73,,9.68,2117.25,,9.65,2495.92,,9.668,2525.04
9.71,629.27,,9.75,1136.05,,9.7,1647.15,,9.72,2120.63,,9.7,2504.17,,9.711,2519.52
9.74,638.84,,9.77,1138.16,,9.74,1654.2,,9.75,2119.97,,9.73,2513.99,,9.744,2513.88
9.78,641.49,,9.81,1139.01,,9.76,1659.6,,9.79,2117.37,,9.77,2520.91,,9.779,2513.15
9.81,637.83,,9.85,1129.96,,9.81,1661.08,,9.84,2109.79,,9.8,2527.07,,9.816,2517.96
9.86,623.99,,9.89,1116.37,,9.86,1658.16,,9.85,2099.27,,9.86,2531.29,,9.866,2529.83
